time	 	 	x	 	 	y	 	 	theta	 	 	xcmd	 	 	ycmd	 	 	thetacmd

1505239062.02	 	 	0.0268911277154	 	 	0.105395843934	 	 	359.42002705	 	 	-0.515451734524	 	 	0.856918613041	 	 	121.027654331
1505239062.08	 	 	0.0268880934557	 	 	0.105403827916	 	 	359.419779651	 	 	-0.515491102631	 	 	0.856894931196	 	 	121.03028662
1505239062.14	 	 	0.0268933026163	 	 	0.105427290062	 	 	359.432233894	 	 	-0.515499290017	 	 	0.856890005772	 	 	121.030834066
1505239062.2	 	 	0.0268997343441	 	 	0.105422267536	 	 	359.429130627	 	 	-0.515440118947	 	 	0.856925599909	 	 	121.026877687
1505239062.26	 	 	0.0290840574999	 	 	0.106576932412	 	 	1.86113438482	 	 	-0.501327118582	 	 	0.865257834506	 	 	120.087840368
1505239062.32	 	 	0.0329578085882	 	 	0.108994386713	 	 	7.89302658926	 	 	-0.477918726769	 	 	0.87840405885	 	 	118.549558782
1505239062.38	 	 	0.0391857812646	 	 	0.113519637014	 	 	16.101907797	 	 	-0.444197809427	 	 	0.89592873941	 	 	116.372026262
1505239062.44	 	 	0.0464478774543	 	 	0.120866146144	 	 	27.007020924	 	 	-0.414105503207	 	 	0.910228890013	 	 	114.462998384
1505239062.5	 	 	0.053308766326	 	 	0.130935512462	 	 	40.6425591588	 	 	-0.397551975385	 	 	0.91757965696	 	 	113.425229573
1505239062.56	 	 	0.0570448755336	 	 	0.143777648026	 	 	56.3681926729	 	 	-0.40757544861	 	 	0.913171535743	 	 	114.052619003
1505239062.62	 	 	0.057793159318	 	 	0.15822517564	 	 	71.5388139615	 	 	-0.434592398487	 	 	0.900627252073	 	 	115.759360399
1505239062.68	 	 	0.0549339342432	 	 	0.174333673625	 	 	85.044845714	 	 	-0.476901602968	 	 	0.878956688971	 	 	118.483235582
1505239062.74	 	 	0.0510986283396	 	 	0.194207264833	 	 	94.0919555278	 	 	-0.521571178551	 	 	0.853207774053	 	 	121.437702175
1505239062.8	 	 	0.0446336472747	 	 	0.215825658328	 	 	100.842720274	 	 	-0.569875701085	 	 	0.821730908092	 	 	124.741558468
1505239062.86	 	 	0.0367085678247	 	 	0.240110351769	 	 	104.566057338	 	 	-0.616333628208	 	 	0.787485148266	 	 	128.048888126
1505239062.92	 	 	0.0277854612204	 	 	0.266333579139	 	 	105.19243495	 	 	-0.658344528076	 	 	0.752716734471	 	 	131.173738975
1505239062.98	 	 	0.0182771090826	 	 	0.29377300315	 	 	105.114246922	 	 	-0.695066236516	 	 	0.718945705081	 	 	134.032495639
1505239063.05	 	 	0.00922621350912	 	 	0.322149909311	 	 	104.888257409	 	 	-0.725313307086	 	 	0.68841891793	 	 	136.49491753
1505239063.11	 	 	0.000164733216273	 	 	0.350323342095	 	 	104.370280731	 	 	-0.751418907721	 	 	0.659825450493	 	 	138.713437986
1505239063.17	 	 	-0.0090437685551	 	 	0.378301682828	 	 	104.464943673	 	 	-0.774716066636	 	 	0.632309272505	 	 	140.779297285
1505239063.23	 	 	-0.0181682815465	 	 	0.405004885389	 	 	105.82468381	 	 	-0.795315025264	 	 	0.606196346565	 	 	142.685020705
1505239063.29	 	 	-0.0274774438708	 	 	0.430132890008	 	 	107.953184464	 	 	-0.81413197162	 	 	0.580679888395	 	 	144.501623414
1505239063.35	 	 	-0.0388323003521	 	 	0.453401284944	 	 	111.384417271	 	 	-0.833728445732	 	 	0.552174681399	 	 	146.483666508
1505239063.41	 	 	-0.0515637518906	 	 	0.475501582635	 	 	115.50510492	 	 	-0.853079302439	 	 	0.521781279609	 	 	148.548187768
1505239063.47	 	 	-0.0672173195864	 	 	0.49829291631	 	 	121.27925893	 	 	-0.873907824522	 	 	0.486091672671	 	 	150.915979384
1505239063.53	 	 	-0.0832612592637	 	 	0.516708106362	 	 	126.292967157	 	 	-0.892358856494	 	 	0.451326568282	 	 	153.171172904
1505239063.59	 	 	-0.10067323094	 	 	0.533764617388	 	 	130.821338426	 	 	-0.909952258839	 	 	0.414713017198	 	 	155.498754888
1505239063.66	 	 	-0.118852550625	 	 	0.549532188925	 	 	134.952488513	 	 	-0.926108858044	 	 	0.377256389015	 	 	157.836159717
1505239063.72	 	 	-0.138532151214	 	 	0.564090282805	 	 	139.481960255	 	 	-0.94128818253	 	 	0.337604143087	 	 	160.269027425
1505239063.77	 	 	-0.160197561166	 	 	0.577311663169	 	 	143.228886688	 	 	-0.955520211704	 	 	0.29492562626	 	 	162.846922348
1505239063.84	 	 	-0.18253903147	 	 	0.589854271475	 	 	146.780672669	 	 	-0.967921041238	 	 	0.251254567975	 	 	165.448236528
1505239063.9	 	 	-0.205647730123	 	 	0.600511454769	 	 	150.480564336	 	 	-0.978374804937	 	 	0.206839892341	 	 	168.062774158
1505239063.96	 	 	-0.229100113312	 	 	0.609669835524	 	 	154.881676398	 	 	-0.986745669832	 	 	0.162274406696	 	 	170.661064354
1505239064.02	 	 	-0.25310292138	 	 	0.616902565734	 	 	159.118822669	 	 	-0.993090773811	 	 	0.117348689689	 	 	173.260887504
1505239064.08	 	 	-0.281520363278	 	 	0.623579712726	 	 	163.480883323	 	 	-0.997903130779	 	 	0.064725123266	 	 	176.288929369
1505239064.14	 	 	-0.306442911782	 	 	0.627167113451	 	 	167.050139118	 	 	-0.999813740635	 	 	0.0192998455491	 	 	178.894131644
1505239064.2	 	 	-0.331724059082	 	 	0.629283320435	 	 	170.376506314	 	 	-0.99965358565	 	 	-0.0263193597447	 	 	-178.491837613
1505239064.26	 	 	-0.357612584153	 	 	0.63000663685	 	 	173.827266099	 	 	-0.997361081645	 	 	-0.0726007769864	 	 	-175.83661897
1505239064.32	 	 	-0.383482918373	 	 	0.629369117538	 	 	177.520212162	 	 	-0.992961567562	 	 	-0.118437010033	 	 	-173.198093433
1505239064.38	 	 	-0.409031575193	 	 	0.627464294862	 	 	180.743288612	 	 	-0.986575186945	 	 	-0.163307686602	 	 	-170.601061367
1505239064.45	 	 	-0.433716931049	 	 	0.624333559829	 	 	184.575687342	 	 	-0.978499032223	 	 	-0.206251409544	 	 	-168.097234815
1505239064.51	 	 	-0.459265036883	 	 	0.619437298178	 	 	187.667419209	 	 	-0.968201024266	 	 	-0.250173493019	 	 	-165.512221157
1505239064.57	 	 	-0.484513544129	 	 	0.612480081157	 	 	190.109873132	 	 	-0.956126434212	 	 	-0.292954333987	 	 	-162.965089257
1505239064.63	 	 	-0.509648580615	 	 	0.604711600763	 	 	193.418603591	 	 	-0.942121819162	 	 	-0.335270753063	 	 	-160.410996865
1505239064.69	 	 	-0.538202683935	 	 	0.593322276086	 	 	197.227165894	 	 	-0.923891286222	 	 	-0.382655055166	 	 	-157.501759844
1505239064.75	 	 	-0.562265660046	 	 	0.582844725487	 	 	199.964739862	 	 	-0.906458456017	 	 	-0.422295000581	 	 	-155.020434515
1505239064.81	 	 	-0.586214820781	 	 	0.571631857132	 	 	202.883807178	 	 	-0.887172486717	 	 	-0.461437946871	 	 	-152.520065425
1505239064.87	 	 	-0.609219716622	 	 	0.559010506349	 	 	205.44017493	 	 	-0.866846470583	 	 	-0.498575166287	 	 	-150.094221553
1505239064.93	 	 	-0.631427636212	 	 	0.544779149891	 	 	207.909959554	 	 	-0.845476547491	 	 	-0.534012553826	 	 	-147.723029999
1505239064.99	 	 	-0.653755702182	 	 	0.529438857199	 	 	210.513142366	 	 	-0.822099746891	 	 	-0.569343486976	 	 	-145.295542217
1505239065.05	 	 	-0.674495630375	 	 	0.513153852675	 	 	213.433013329	 	 	-0.798612425766	 	 	-0.601845655806	 	 	-142.997802318
1505239065.12	 	 	-0.694513512475	 	 	0.49614568926	 	 	216.128072712	 	 	-0.774175558952	 	 	-0.632970934499	 	 	-140.730345588
1505239065.18	 	 	-0.714057991596	 	 	0.478389532664	 	 	218.728406822	 	 	-0.748522190245	 	 	-0.663109742584	 	 	-138.462527101
1505239065.24	 	 	-0.733025831005	 	 	0.460187478409	 	 	221.064743922	 	 	-0.721821317922	 	 	-0.692079464364	 	 	-136.205057263
1505239065.3	 	 	-0.7512432182	 	 	0.440695492644	 	 	223.010283529	 	 	-0.694275397002	 	 	-0.71970943659	 	 	-133.969503806
1505239065.36	 	 	-0.768377764579	 	 	0.420230205821	 	 	225.447317286	 	 	-0.666409237436	 	 	-0.745586164209	 	 	-131.790529275
1505239065.42	 	 	-0.78535986286	 	 	0.398971814539	 	 	227.731565902	 	 	-0.63686762044	 	 	-0.770973173356	 	 	-129.558640425
1505239065.48	 	 	-0.803801177166	 	 	0.37366897161	 	 	230.474680721	 	 	-0.602188926179	 	 	-0.79835361663	 	 	-127.026829319
1505239065.54	 	 	-0.818591982084	 	 	0.351253269473	 	 	233.02328273	 	 	-0.572046200437	 	 	-0.820221399724	 	 	-124.893037142
1505239065.6	 	 	-0.832656335262	 	 	0.328134241841	 	 	235.266873785	 	 	-0.541178852483	 	 	-0.840907515501	 	 	-122.763924551
1505239065.66	 	 	-0.846018514523	 	 	0.304311315501	 	 	237.410892415	 	 	-0.509531072459	 	 	-0.860452256781	 	 	-120.632599762
1505239065.72	 	 	-0.858171984212	 	 	0.279703844262	 	 	239.217665491	 	 	-0.477933722416	 	 	-0.878395899909	 	 	-118.55053691
1505239065.79	 	 	-0.869258503217	 	 	0.25465467607	 	 	241.245571221	 	 	-0.446303283967	 	 	-0.894881768012	 	 	-116.506752688
1505239065.84	 	 	-0.879804894687	 	 	0.229797531694	 	 	243.248200563	 	 	-0.41406982686	 	 	-0.91024512	 	 	-114.460752701
1505239065.91	 	 	-0.889449729871	 	 	0.204547356377	 	 	245.595832993	 	 	-0.381623420709	 	 	-0.924317891619	 	 	-112.434277381
1505239065.97	 	 	-0.897797533946	 	 	0.179226939743	 	 	247.803080958	 	 	-0.349919841933	 	 	-0.936779645499	 	 	-110.482412369
1505239066.03	 	 	-0.905718611994	 	 	0.153507440964	 	 	249.941623699	 	 	-0.317176507617	 	 	-0.948366523564	 	 	-108.492257687
1505239066.09	 	 	-0.912593031121	 	 	0.126489935854	 	 	251.654424582	 	 	-0.283810450752	 	 	-0.95888040341	 	 	-106.487756627
1505239066.15	 	 	-0.918597533146	 	 	0.0994006194104	 	 	253.742960705	 	 	-0.250365003912	 	 	-0.968151519555	 	 	-104.499112281
1505239066.21	 	 	-0.923657653607	 	 	0.0722404429036	 	 	255.218987571	 	 	-0.217013814152	 	 	-0.97616853282	 	 	-102.533700226
1505239066.27	 	 	-0.92830896232	 	 	0.0402566735936	 	 	257.793009963	 	 	-0.178163397268	 	 	-0.984000916602	 	 	-100.262801132
1505239066.33	 	 	-0.93140613016	 	 	0.0133711792596	 	 	260.477300673	 	 	-0.145377779684	 	 	-0.989376218217	 	 	-98.3591561801
1505239066.4	 	 	-0.933425834806	 	 	-0.0135826879268	 	 	262.57991683	 	 	-0.113038323804	 	 	-0.993590628655	 	 	-96.490491468
1505239066.45	 	 	-0.934066339647	 	 	-0.0413758725921	 	 	264.263535418	 	 	-0.0807948669263	 	 	-0.996730750744	 	 	-94.6342561622
1505239066.51	 	 	-0.934062469512	 	 	-0.0693009510568	 	 	265.910182039	 	 	-0.0480381903057	 	 	-0.998845499701	 	 	-92.7534452593
1505239066.57	 	 	-0.933057155604	 	 	-0.0971770611646	 	 	267.830323336	 	 	-0.0156148481645	 	 	-0.999878080826	 	 	-90.8947012583
1505239066.64	 	 	-0.931717168126	 	 	-0.125511168296	 	 	269.444013692	 	 	0.018270482856	 	 	-0.999833080797	 	 	-88.9531201939
1505239066.7	 	 	-0.929317327084	 	 	-0.152990008332	 	 	271.07764894	 	 	0.0506545355568	 	 	-0.998716234987	 	 	-87.096466308
1505239066.76	 	 	-0.926614856406	 	 	-0.180156885119	 	 	273.624831584	 	 	0.0834313489063	 	 	-0.996513527264	 	 	-85.2141726492
1505239066.82	 	 	-0.922303511743	 	 	-0.207150501733	 	 	275.442048098	 	 	0.11463668479	 	 	-0.993407484621	 	 	-83.4173299654
1505239066.88	 	 	-0.91667999804	 	 	-0.23450157098	 	 	276.720516657	 	 	0.145599135396	 	 	-0.989343667171	 	 	-81.6280246755
1505239066.94	 	 	-0.910750098535	 	 	-0.261269946378	 	 	278.403585897	 	 	0.17652316042	 	 	-0.984296486753	 	 	-79.8326911724
1505239067.0	 	 	-0.903616522985	 	 	-0.288376269353	 	 	280.587963158	 	 	0.207420029105	 	 	-0.978251977522	 	 	-78.0287979417
1505239067.06	 	 	-0.896025604897	 	 	-0.315219917509	 	 	282.239337268	 	 	0.238490187527	 	 	-0.971144907032	 	 	-76.2025528682
1505239067.12	 	 	-0.886260733722	 	 	-0.345672916918	 	 	284.497171853	 	 	0.273585930209	 	 	-0.961847565258	 	 	-74.1222374486
1505239067.18	 	 	-0.877060461032	 	 	-0.371629809884	 	 	286.5603921	 	 	0.303529974183	 	 	-0.952821890372	 	 	-72.3302545242
1505239067.24	 	 	-0.866200161419	 	 	-0.39714387396	 	 	288.001947415	 	 	0.331766504994	 	 	-0.943361535237	 	 	-70.6239697279
1505239067.31	 	 	-0.854912945906	 	 	-0.422283256866	 	 	289.549307095	 	 	0.359976386297	 	 	-0.932961414694	 	 	-68.9012541668
1505239067.37	 	 	-0.842731350785	 	 	-0.447059271196	 	 	291.578648448	 	 	0.387611705651	 	 	-0.921822740901	 	 	-67.1940258539
1505239067.43	 	 	-0.830013754467	 	 	-0.4712556644	 	 	293.311573441	 	 	0.414707385717	 	 	-0.909954825379	 	 	-65.4991094779
1505239067.49	 	 	-0.81695625311	 	 	-0.495839573387	 	 	295.03402083	 	 	0.443046659475	 	 	-0.896498554114	 	 	-63.7015678244
1505239067.55	 	 	-0.803032734718	 	 	-0.519257274131	 	 	296.948137926	 	 	0.469472159092	 	 	-0.882947275797	 	 	-61.9999613048
1505239067.61	 	 	-0.788258197754	 	 	-0.542354044769	 	 	298.46239552	 	 	0.495450908837	 	 	-0.868635940387	 	 	-60.3005118292
1505239067.67	 	 	-0.769790090121	 	 	-0.569333319055	 	 	299.964909613	 	 	0.525853208045	 	 	-0.85057533681	 	 	-58.2743014248
1505239067.73	 	 	-0.753165070363	 	 	-0.591897263908	 	 	301.810380731	 	 	0.551246369743	 	 	-0.834342519499	 	 	-56.5474387757
1505239067.79	 	 	-0.736207836158	 	 	-0.613504464134	 	 	303.841088876	 	 	0.575574723939	 	 	-0.817749189643	 	 	-54.8601095951
1505239067.85	 	 	-0.718530664722	 	 	-0.635181532019	 	 	305.87159008	 	 	0.600253926193	 	 	-0.799809492373	 	 	-53.1119140647
1505239067.92	 	 	-0.700459340418	 	 	-0.656080997098	 	 	308.060001889	 	 	0.624072726754	 	 	-0.781366259652	 	 	-51.3858396183
1505239067.98	 	 	-0.681503798424	 	 	-0.676147544575	 	 	309.261167953	 	 	0.646689170067	 	 	-0.762753641301	 	 	-49.7075579041
1505239068.04	 	 	-0.661621458367	 	 	-0.69609743334	 	 	310.901343383	 	 	0.669277304569	 	 	-0.743012711593	 	 	-47.9886886981
1505239068.1	 	 	-0.641292748164	 	 	-0.715889077921	 	 	312.185549253	 	 	0.691965340387	 	 	-0.721930722232	 	 	-46.214115359
1505239068.16	 	 	-0.620619117626	 	 	-0.734697461882	 	 	314.070714163	 	 	0.713485425601	 	 	-0.700670070329	 	 	-44.4807885886
1505239068.22	 	 	-0.599619173372	 	 	-0.752892359738	 	 	315.846430056	 	 	0.734387747374	 	 	-0.678730164724	 	 	-42.7444931515
1505239068.28	 	 	-0.57813153441	 	 	-0.771026987594	 	 	317.373939746	 	 	0.755390212986	 	 	-0.655275229293	 	 	-40.9405225922
1505239068.34	 	 	-0.556300948124	 	 	-0.788087714999	 	 	319.110347831	 	 	0.775050193614	 	 	-0.631899673507	 	 	-39.1904164786
1505239068.4	 	 	-0.533403047694	 	 	-0.803885978376	 	 	320.597320594	 	 	0.793068289155	 	 	-0.609132734908	 	 	-37.5268204368
1505239068.46	 	 	-0.51011584245	 	 	-0.819458624823	 	 	322.436997131	 	 	0.810983204627	 	 	-0.585069433326	 	 	-35.8078953089
1505239068.52	 	 	-0.486310726453	 	 	-0.834450597271	 	 	324.345013744	 	 	0.828281138689	 	 	-0.560312729903	 	 	-34.0774278576
1505239068.58	 	 	-0.462379071355	 	 	-0.848260090796	 	 	326.146079438	 	 	0.844251897998	 	 	-0.535946576373	 	 	-32.4081286869
1505239068.64	 	 	-0.437528944281	 	 	-0.861518145712	 	 	328.259760852	 	 	0.859670472084	 	 	-0.510848979081	 	 	-30.7203963723
1505239068.7	 	 	-0.408632880673	 	 	-0.876564311406	 	 	330.053119449	 	 	0.877204436264	 	 	-0.480117045103	 	 	-28.6930466923
1505239068.76	 	 	-0.383122297559	 	 	-0.888425628166	 	 	331.610543282	 	 	0.891127562796	 	 	-0.453752869771	 	 	-26.9847203481
1505239068.83	 	 	-0.357272188729	 	 	-0.899195410554	 	 	332.788018849	 	 	0.903934142255	 	 	-0.427671680693	 	 	-25.3198896471
1505239068.88	 	 	-0.330966405888	 	 	-0.909643367186	 	 	334.534096285	 	 	0.916369997568	 	 	-0.400332396338	 	 	-23.5989598209
1505239068.95	 	 	-0.30443626888	 	 	-0.918995156787	 	 	336.388900653	 	 	0.927705555126	 	 	-0.373312741529	 	 	-21.9200682908
1505239069.01	 	 	-0.278050106236	 	 	-0.927401232048	 	 	338.364372813	 	 	0.938055366272	 	 	-0.346485396242	 	 	-20.2724962733
1505239069.07	 	 	-0.25148316251	 	 	-0.935227827476	 	 	340.07981512	 	 	0.947742597844	 	 	-0.319035998334	 	 	-18.6046361726
1505239069.13	 	 	-0.224448442253	 	 	-0.941892889745	 	 	341.595939545	 	 	0.956419886423	 	 	-0.291994864431	 	 	-16.977423454
1505239069.19	 	 	-0.196806933122	 	 	-0.947971697304	 	 	343.2079349	 	 	0.964504564158	 	 	-0.264066176779	 	 	-15.311472261
1505239069.25	 	 	-0.169701341031	 	 	-0.95301232298	 	 	344.545663118	 	 	0.971549801654	 	 	-0.23683534978	 	 	-13.699835093
1505239069.31	 	 	-0.136916820726	 	 	-0.958434448846	 	 	347.516148774	 	 	0.979168737001	 	 	-0.203048231904	 	 	-11.715268206
1505239069.37	 	 	-0.109342091458	 	 	-0.961967495524	 	 	349.53420528	 	 	0.984593874703	 	 	-0.174856803977	 	 	-10.0703250946
1505239069.43	 	 	-0.0817167476772	 	 	-0.96473111619	 	 	351.255229922	 	 	0.989209513021	 	 	-0.146507813266	 	 	-8.42460307675
1505239069.5	 	 	-0.0535576151842	 	 	-0.966534616202	 	 	352.573149653	 	 	0.993020754155	 	 	-0.117939738078	 	 	-6.77321388086
1505239069.56	 	 	-0.0251431458068	 	 	-0.967577699762	 	 	354.228651253	 	 	0.996037024195	 	 	-0.0889395661832	 	 	-5.10260405534
1505239069.62	 	 	0.00333399753941	 	 	-0.968191004372	 	 	355.600156849	 	 	0.998255875738	 	 	-0.0590356380096	 	 	-3.38446076774
1505239069.68	 	 	0.0319299363744	 	 	-0.967766248625	 	 	356.927216578	 	 	0.999569417787	 	 	-0.02934244408	 	 	-1.68143954596
1505239069.74	 	 	0.0599116394002	 	 	-0.966806509241	 	 	358.536202318	 	 	0.999999963066	 	 	0.00027178507785	 	 	0.0155721380871
1505239069.8	 	 	0.0878791931923	 	 	-0.965289336536	 	 	0.590213119074	 	 	0.999538902231	 	 	0.0303641717576	 	 	1.74000633602
1505239069.87	 	 	0.115771273063	 	 	-0.962754334016	 	 	2.0885137579	 	 	0.998197833996	 	 	0.0600090343727	 	 	3.44033133334
1505239069.92	 	 	0.143575141554	 	 	-0.958598565762	 	 	3.6513361577	 	 	0.996106772311	 	 	0.0881549667085	 	 	5.05747253796
1505239069.98	 	 	0.176121617452	 	 	-0.953611535276	 	 	5.72648509848	 	 	0.992433332246	 	 	0.122784693859	 	 	7.05284257546
1505239070.04	 	 	0.204209595489	 	 	-0.948470420574	 	 	7.17635266211	 	 	0.988252411846	 	 	0.152830528626	 	 	8.79099563899
1505239070.1	 	 	0.231026148379	 	 	-0.942370275572	 	 	8.34771189376	 	 	0.983499139534	 	 	0.180912803682	 	 	10.4229325437
1505239070.17	 	 	0.257909600691	 	 	-0.935890585407	 	 	10.3759882477	 	 	0.97774349569	 	 	0.209803852768	 	 	12.1108577674
1505239070.22	 	 	0.285122750021	 	 	-0.928366285387	 	 	12.3941693689	 	 	0.97105228852	 	 	0.238867019405	 	 	13.8196805858
1505239070.29	 	 	0.311942856873	 	 	-0.91943908761	 	 	13.6614252841	 	 	0.963816788907	 	 	0.26656555933	 	 	15.4599993633
1505239070.35	 	 	0.33861337916	 	 	-0.909867153576	 	 	15.300066302	 	 	0.955673866508	 	 	0.294427343965	 	 	17.1232015944
1505239070.41	 	 	0.369582189001	 	 	-0.898039183452	 	 	17.6100156016	 	 	0.94488778005	 	 	0.327394384669	 	 	19.1107013322
1505239070.47	 	 	0.394939110217	 	 	-0.887191603015	 	 	19.2158452533	 	 	0.935202461492	 	 	0.354113479014	 	 	20.7391213437
1505239070.53	 	 	0.419876342664	 	 	-0.875471147124	 	 	21.0969138961	 	 	0.924907732836	 	 	0.380191643438	 	 	22.3455539962
1505239070.6	 	 	0.444638880858	 	 	-0.863303542202	 	 	23.3215657085	 	 	0.913631178492	 	 	0.406544056269	 	 	23.9879218999
1505239070.66	 	 	0.469554470505	 	 	-0.849708790908	 	 	24.6193854098	 	 	0.901578532138	 	 	0.432615476363	 	 	25.6336597167
1505239070.72	 	 	0.494066280487	 	 	-0.835163417108	 	 	26.1900618903	 	 	0.888893917642	 	 	0.458113089946	 	 	27.265415516
1505239070.78	 	 	0.517874727077	 	 	-0.820057500525	 	 	27.9483487837	 	 	0.875645722101	 	 	0.482954003365	 	 	28.8785110257
1505239070.84	 	 	0.541841483917	 	 	-0.804533588078	 	 	29.4803652563	 	 	0.860959401936	 	 	0.50867367557	 	 	30.575524258
1505239070.9	 	 	0.565164607623	 	 	-0.788610505488	 	 	31.1451748971	 	 	0.845548934095	 	 	0.533897930368	 	 	32.2692025956
1505239070.96	 	 	0.59144012672	 	 	-0.769153860884	 	 	33.03741014	 	 	0.827034463212	 	 	0.562151222234	 	 	34.2047000319
1505239071.02	 	 	0.61342118704	 	 	-0.751788985604	 	 	34.6826471065	 	 	0.810419060159	 	 	0.585850618273	 	 	35.8631050467
1505239071.09	 	 	0.63505142269	 	 	-0.732992512717	 	 	36.0893861174	 	 	0.793312109408	 	 	0.608815158374	 	 	37.5038804222
1505239071.15	 	 	0.655683191351	 	 	-0.714021768622	 	 	37.9327514516	 	 	0.775902362411	 	 	0.630853012995	 	 	39.1130843635
1505239071.21	 	 	0.675793516234	 	 	-0.694387444272	 	 	39.655550168	 	 	0.757856248928	 	 	0.652421570735	 	 	40.7244277235
1505239071.27	 	 	0.695666814024	 	 	-0.674533601189	 	 	41.5813589492	 	 	0.738573760525	 	 	0.674172678373	 	 	42.3899368397
1505239071.33	 	 	0.718025655683	 	 	-0.650916773552	 	 	43.4829103491	 	 	0.71532347675	 	 	0.698793477081	 	 	44.3302844716
1505239071.39	 	 	0.736073405193	 	 	-0.629955276386	 	 	45.0401129149	 	 	0.695521657999	 	 	0.718505130987	 	 	45.9311988024
